"Time (s)","X (rad/s)","Y (rad/s)","Z (rad/s)"
2.189870831E-2,-3.020864725E-1,-2.555078082E-2,-1.983088404E-1
3.185670823E-2,-2.721062303E-1,3.744041547E-2,-1.934918910E-1
4.181470827E-2,-2.750325203E-1,-5.221729726E-2,-1.234052032E-1
5.177270831E-2,-2.832858860E-1,-1.609061360E-1,-5.096358806E-2
6.173070823E-2,-2.481846064E-1,-2.544637620E-1,-1.418373547E-2
7.168870827E-2,-1.623272598E-1,-3.155642152E-1,-7.562096231E-3
8.164670831E-2,-6.717970222E-2,-3.795051277E-1,-1.362265181E-2
9.160470823E-2,1.459458191E-2,-4.149557054E-1,1.440121606E-2
1.015627083E-1,8.365008235E-2,-4.174774587E-1,6.353334337E-2
1.115207083E-1,1.476679146E-1,-4.004465938E-1,1.280808598E-1
1.214787082E-1,1.776029021E-1,-3.521618843E-1,1.806074530E-1
1.314367083E-1,1.747262627E-1,-2.879319489E-1,2.177741230E-1
1.413947083E-1,1.390031576E-1,-2.483474910E-1,2.483072728E-1
1.513527082E-1,9.316309541E-2,-2.132450640E-1,2.825385630E-1
1.613107083E-1,4.678627849E-2,-1.514879614E-1,3.165282309E-1
1.712687083E-1,6.072228309E-3,-7.810551673E-2,3.408656716E-1
1.812267082E-1,-2.978244051E-2,4.193829373E-4,3.432742357E-1
1.911847083E-1,-2.749250643E-2,7.204315811E-2,3.225626349E-1
2.011427083E-1,3.656077757E-2,1.270288974E-1,2.621874511E-1
2.111007082E-1,1.123223528E-1,1.124815941E-1,1.847511977E-1
2.210587083E-1,1.608118564E-1,3.851282969E-2,1.346350461E-1
2.310167083E-1,1.925448775E-1,-6.957592815E-2,1.192211062E-1
2.409747082E-1,2.143164873E-1,-1.276102066E-1,1.399972290E-1
2.509327083E-1,2.248961031E-1,-1.099690124E-1,1.660444438E-1
2.608907083E-1,1.877114475E-1,-7.634154707E-2,1.889580190E-1
2.708487082E-1,1.123033613E-1,-4.746716097E-2,2.097970247E-1
2.808067083E-1,4.882957414E-2,-1.988826506E-2,2.183915824E-1
2.907647083E-1,8.471647277E-3,-1.557850279E-3,2.157888263E-1
3.007227082E-1,-2.290571854E-2,-1.948891394E-2,2.178317457E-1
3.106807083E-1,-6.251934916E-2,-9.448631108E-2,2.325419933E-1
3.206387083E-1,-1.215104982E-1,-2.009435147E-1,2.534576654E-1
3.305967082E-1,-1.817519516E-1,-3.229913414E-1,2.775233984E-1
3.405547083E-1,-2.661323249E-1,-4.513253570E-1,2.776800096E-1
3.505127083E-1,-3.574233949E-1,-4.828210175E-1,2.619145811E-1
3.604707082E-1,-4.030183256E-1,-3.661468625E-1,2.303518355E-1
3.704287083E-1,-3.559432030E-1,-1.183072925E-1,1.825791150E-1
3.803867083E-1,-2.468350977E-1,1.282920986E-1,1.335101128E-1
3.903447082E-1,-1.422509551E-1,2.608081102E-1,1.192597225E-1
4.003027083E-1,-8.890437335E-2,2.395483553E-1,1.590795666E-1
4.102607083E-1,-6.888871640E-2,8.932354301E-2,2.073297501E-1
4.202187082E-1,-6.586975604E-2,-8.653776348E-2,2.469088435E-1
4.301767083E-1,-7.301574945E-2,-2.301952392E-1,2.838692069E-1
4.401347083E-1,-1.067247167E-1,-3.343741298E-1,2.902698517E-1
4.500927082E-1,-1.636269689E-1,-3.567551374E-1,2.635745704E-1
4.600507083E-1,-2.591505647E-1,-3.214517236E-1,2.257241607E-1
4.700087083E-1,-3.883190155E-1,-2.782623768E-1,1.876876950E-1
4.799667082E-1,-5.552885532E-1,-2.443129122E-1,1.644145995E-1
4.899247083E-1,-7.009046674E-1,-1.760254353E-1,1.531620771E-1
4.998827083E-1,-7.773751616E-1,-5.062036589E-2,1.287856251E-1
5.098407082E-1,-7.789476514E-1,8.617548645E-2,1.124190390E-1
5.197987083E-1,-7.158105373E-1,1.821448803E-1,1.192540377E-1
5.297567083E-1,-6.176325083E-1,2.404886186E-1,1.506215036E-1
5.397147082E-1,-4.837865233E-1,2.436945289E-1,2.146305740E-1
5.496727083E-1,-3.292973042E-1,1.857236326E-1,2.916313112E-1
5.596307083E-1,-1.760558188E-1,8.059243113E-2,3.709399700E-1
5.695887082E-1,-5.108634382E-2,-3.422248363E-2,4.455755353E-1
5.795467083E-1,2.945510484E-2,-1.165229455E-1,4.905683100E-1
5.895047083E-1,6.790006161E-2,-1.869490296E-1,4.807310998E-1
5.994627082E-1,5.382072181E-2,-2.317085117E-1,4.162178934E-1
6.094207083E-1,2.199041471E-2,-2.450727522E-1,3.388728499E-1
6.193787083E-1,-4.707508720E-3,-2.333436608E-1,2.747609913E-1
6.293367082E-1,-1.586914249E-2,-2.009700984E-1,2.253833711E-1
6.392947083E-1,-3.102093190E-2,-1.749893576E-1,1.702015996E-1
6.492527083E-1,-7.305371761E-2,-1.725995094E-1,1.201624870E-1
6.592107082E-1,-1.132426783E-1,-1.640630066E-1,8.649720252E-2
6.691687083E-1,-1.217345297E-1,-1.436734349E-1,6.634625793E-2
6.791267083E-1,-1.099361926E-1,-1.105546206E-1,5.075691268E-2
6.890847082E-1,-9.386593848E-2,-9.567504376E-2,4.074280709E-2
6.990427083E-1,-8.558057994E-2,-1.318631470E-1,3.748762608E-2
7.090007083E-1,-7.041709870E-2,-1.601763368E-1,4.358488694E-2
7.189587082E-1,-4.148478806E-2,-1.678126901E-1,4.575696215E-2
7.289167083E-1,-1.272406708E-2,-1.722783297E-1,5.061403662E-2
7.388747083E-1,-8.594184183E-4,-1.584812850E-1,4.824116081E-2
7.488327082E-1,4.677647725E-3,-1.456642449E-1,3.856030107E-2
7.587907083E-1,1.771541871E-2,-1.497689784E-1,2.458856069E-2
7.687487083E-1,2.631340735E-2,-2.077262700E-1,2.623029985E-3
7.787067082E-1,2.275675535E-2,-2.917604446E-1,-3.155517951E-2
7.886647083E-1,1.619735919E-2,-3.998891115E-1,-6.347188354E-2
7.986227083E-1,1.365963276E-2,-4.977379143E-1,-9.928953648E-2
8.085807082E-1,1.456341892E-2,-5.362036824E-1,-1.415605545E-1
8.185387083E-1,2.559902519E-2,-5.700244904E-1,-1.722050160E-1
8.284967083E-1,2.242069319E-2,-5.914667249E-1,-1.902687401E-1
8.384547082E-1,1.605440676E-2,-6.049790382E-1,-1.900136173E-1
8.484127083E-1,1.380193327E-2,-6.392195821E-1,-1.798520088E-1
8.583707083E-1,9.449529462E-3,-6.565263867E-1,-1.823207587E-1
8.683287082E-1,-2.306293324E-2,-6.462442875E-1,-1.932113171E-1
8.782867083E-1,-8.980361372E-2,-6.613276005E-1,-1.958015114E-1
8.882437083E-1,-1.242452115E-1,-7.198377848E-1,-1.897701174E-1
8.982017083E-1,-1.440167874E-1,-7.748901248E-1,-2.041631639E-1
9.081607083E-1,-1.694017053E-1,-8.388159871E-1,-2.034492195E-1
9.181177083E-1,-1.447863728E-1,-8.637975454E-1,-1.722963750E-1
9.280757083E-1,-9.679860622E-2,-8.738011718E-1,-1.550748944E-1
9.380334583E-1,-6.968922913E-2,-9.833809137E-1,-1.878243089E-1
9.479914582E-1,-3.911806270E-2,-1.086177230E0,-2.708709836E-1
9.579494583E-1,-4.676906019E-2,-1.208684683E0,-3.422119617E-1
9.679074583E-1,-1.163107380E-1,-1.427263021E0,-3.866284192E-1
9.778654582E-1,-2.012623698E-1,-1.612219810E0,-4.214583039E-1
9.878234583E-1,-2.849301696E-1,-1.714255452E0,-3.962935209E-1
9.977814583E-1,-3.341113031E-1,-1.765562534E0,-3.224760294E-1
1.007739458E0,-3.453384340E-1,-1.698446631E0,-2.692425847E-1
1.017697458E0,-3.727841675E-1,-1.572246909E0,-2.640925646E-1
1.027655458E0,-4.581503272E-1,-1.536573172E0,-2.460644096E-1
1.037613458E0,-6.010915041E-1,-1.498361826E0,-2.339366376E-1
1.047571458E0,-7.590201497E-1,-1.445718646E0,-2.674367130E-1
1.057529458E0,-9.026830792E-1,-1.466818929E0,-2.813629210E-1
1.067487458E0,-1.019570589E0,-1.483987093E0,-2.533589602E-1
1.077445458E0,-1.118364811E0,-1.465109825E0,-2.072689533E-1
1.087403458E0,-1.207932115E0,-1.362277269E0,-2.256519198E-1
1.097361458E0,-1.298612118E0,-1.143675447E0,-3.341099322E-1
1.107319458E0,-1.375922918E0,-9.491889477E-1,-4.932431579E-1
1.117277458E0,-1.448172331E0,-9.620775580E-1,-6.331549287E-1
1.127235458E0,-1.508625746E0,-1.082969546E0,-7.243409157E-1
1.137193458E0,-1.569192648E0,-1.172176361E0,-7.290621400E-1
1.147151458E0,-1.568860292E0,-1.174480915E0,-6.798400283E-1
1.157109458E0,-1.415385008E0,-1.210734248E0,-6.183798313E-1
1.167067458E0,-1.201313853E0,-8.896194100E-1,-6.139486432E-1
1.177025458E0,-9.346711040E-1,-5.598391294E-1,-6.176823974E-1
1.186983458E0,-6.758057475E-1,-3.194599450E-1,-5.620939732E-1
1.196941458E0,-4.317598045E-1,-1.546494365E-1,-4.726887643E-1
1.206899458E0,-2.315031290E-1,7.821097225E-2,-3.371788859E-1
1.216857458E0,-2.871646918E-2,2.983364165E-1,-1.806723624E-1
1.226815458E0,1.443560719E-1,5.160135031E-1,-4.019141197E-2
1.236773458E0,2.801841795E-1,6.650024652E-1,5.718627572E-2
1.246731458E0,3.891507089E-1,7.543531656E-1,1.079591736E-1
1.256689458E0,4.449399412E-1,7.279806733E-1,1.055484787E-1
1.266647458E0,4.660511613E-1,6.059544086E-1,5.980904028E-2
1.276605458E0,4.814245105E-1,5.246550441E-1,1.690878998E-3
1.286563458E0,5.076159239E-1,3.691890240E-1,-3.431332856E-2
1.296521458E0,5.525019169E-1,1.905428618E-1,-9.235212952E-2
1.306479458E0,6.499423981E-1,6.090040505E-2,-1.823132634E-1
1.316437458E0,8.134892583E-1,-2.207783237E-2,-2.617146373E-1
1.326395458E0,9.956353307E-1,-6.746876985E-2,-3.113998473E-1
1.336353458E0,1.142741203E0,-7.865723968E-2,-3.447490036E-1
1.346311458E0,1.094315410E0,-1.509367526E-1,-3.806216121E-1
1.356269458E0,6.883662343E-1,-3.655124307E-1,-4.179434180E-1
1.366227458E0,1.524509490E-1,-3.547725677E-1,-4.700600505E-1
1.376185458E0,-2.588114142E-1,-2.502449974E-2,-4.711218476E-1
1.386143458E0,-5.216717124E-1,2.768768966E-1,-3.960587382E-1
1.396101458E0,-6.461699605E-1,5.117469430E-1,-2.792420983E-1
1.406059458E0,-5.569296479E-1,7.620319724E-1,-1.313180774E-1
1.416017458E0,-2.614935040E-1,9.658902884E-1,2.007303759E-2
1.425975458E0,1.215450317E-1,1.196988106E0,1.811428517E-1
1.435933458E0,4.576290250E-1,1.408348799E0,3.359302878E-1
1.445891458E0,6.842514873E-1,1.473729968E0,4.267315567E-1
1.455849458E0,7.698561549E-1,1.421346903E0,4.321678877E-1
1.465807458E0,7.597927451E-1,1.350282788E0,3.939585984E-1
1.475765458E0,7.422137260E-1,1.263899446E0,3.204622865E-1
1.485723458E0,7.921743989E-1,1.274825931E0,2.689921558E-1
1.495681458E0,9.008531570E-1,1.244244576E0,2.973715961E-1
1.505639458E0,9.699292779E-1,1.060210347E0,4.004818499E-1
1.515597458E0,9.647728205E-1,7.785030007E-1,5.112371445E-1
1.525555458E0,9.321731329E-1,6.013943553E-1,6.047453880E-1
1.535513458E0,8.944752812E-1,4.980970025E-1,6.242567301E-1
1.545471458E0,8.251088262E-1,5.014082193E-1,6.053736210E-1
1.555429458E0,7.122555375E-1,5.381598473E-1,5.828624368E-1
1.565387458E0,5.779116154E-1,5.515347719E-1,5.700389743E-1
1.575345458E0,4.461794198E-1,5.348508358E-1,6.093221903E-1
1.585303458E0,3.165886998E-1,5.502765179E-1,6.754927039E-1
1.595261458E0,2.129262239E-1,5.816254020E-1,7.694682479E-1
1.605219458E0,1.066153422E-1,6.303064823E-1,8.721549511E-1
1.615176458E0,2.786418423E-3,6.122153401E-1,9.316065311E-1
1.625134458E0,-8.004540950E-2,4.727894962E-1,9.315953255E-1
1.635092458E0,-9.531117976E-2,2.849541008E-1,8.612806797E-1
1.645050458E0,-1.804184169E-2,7.811120898E-2,7.601050735E-1
1.655008458E0,1.264306456E-1,-1.308425516E-1,6.809487343E-1
1.664966458E0,2.824517190E-1,-2.510892749E-1,6.433604956E-1
1.674924458E0,4.133391678E-1,-2.794724703E-1,6.457802057E-1
1.684882458E0,5.186882019E-1,-3.005655408E-1,6.587457061E-1
1.694840458E0,6.200342774E-1,-3.294424415E-1,6.882253289E-1
1.704798458E0,7.059733272E-1,-2.686454356E-1,6.899136305E-1
1.714756458E0,7.248905301E-1,-1.952713430E-1,6.653813720E-1
1.724714458E0,6.602229476E-1,-1.384146959E-1,6.075189710E-1
1.734672458E0,5.142859817E-1,-8.669529855E-2,5.362107158E-1
1.744630458E0,3.299808204E-1,-4.876824096E-2,4.423651695E-1
1.754588458E0,1.855290979E-1,1.050668657E-1,3.977234066E-1
1.764546458E0,1.207357496E-1,3.240355253E-1,3.833670020E-1
1.774504458E0,1.934464425E-1,3.848839700E-1,3.518889844E-1
1.784462458E0,2.716964185E-1,3.313806951E-1,3.321505487E-1
1.794420458E0,2.793423533E-1,3.000693619E-1,3.319556117E-1
1.804378458E0,2.575160861E-1,2.996002436E-1,2.971850038E-1
1.814336458E0,2.998158634E-1,4.289206862E-1,2.165343761E-1
1.824294458E0,3.516735137E-1,6.352537274E-1,1.030107960E-1
1.834252458E0,3.705534637E-1,7.152177691E-1,-3.832688928E-2
1.844210458E0,4.048443437E-1,6.839692593E-1,-1.492437720E-1
1.854168458E0,4.752415419E-1,5.945259333E-1,-1.968621612E-1
1.864126458E0,5.845951438E-1,4.968174696E-1,-2.399129570E-1
1.874084458E0,7.039633393E-1,3.728177547E-1,-2.641732991E-1
1.884042458E0,7.840043306E-1,1.960996687E-1,-2.907315791E-1
1.894000458E0,8.044020534E-1,2.239898220E-2,-3.782366812E-1
1.903958458E0,7.796964049E-1,-7.317969203E-2,-4.931095839E-1
1.913916458E0,6.716886759E-1,-5.926654488E-2,-5.875484943E-1
1.923874458E0,4.956191480E-1,4.705289006E-2,-6.296799779E-1
1.933833333E0,2.881791294E-1,1.661252230E-1,-6.319881082E-1
1.943791333E0,7.922777534E-2,2.784885168E-1,-6.046395898E-1
1.953749333E0,-1.414920837E-1,2.061690390E-1,-5.299237967E-1
1.963707333E0,-3.570370376E-1,-6.647434831E-2,-4.357562363E-1
1.973665333E0,-5.416641235E-1,-4.400042593E-1,-3.738510609E-1
1.983623333E0,-6.660895348E-1,-7.568795085E-1,-3.891789317E-1
1.993581333E0,-6.619459391E-1,-9.862330556E-1,-4.129356742E-1
2.003539333E0,-5.240957141E-1,-1.135017037E0,-3.796671033E-1
2.013497333E0,-3.041159213E-1,-1.200342536E0,-2.837885320E-1
2.023455333E0,-7.991328835E-2,-1.155948162E0,-1.577584296E-1
2.033412333E0,4.655543342E-2,-1.065626860E0,-5.659426376E-2
2.043370333E0,5.995371193E-2,-9.729654193E-1,2.772921231E-3
2.053328333E0,1.956261322E-2,-8.713328242E-1,2.805510722E-2
2.063286333E0,-9.019486606E-2,-7.846515775E-1,-5.607780069E-3
2.073244333E0,-2.759591341E-1,-6.814426184E-1,-1.005798280E-1
2.083202333E0,-5.192605257E-1,-6.036264896E-1,-2.228391618E-1
2.093160333E0,-7.756912708E-1,-5.034972429E-1,-3.293597400E-1
2.103118333E0,-1.018915892E0,-3.575989306E-1,-3.682451546E-1
2.113076333E0,-1.180321097E0,-2.281016558E-1,-3.081493080E-1
2.123034333E0,-1.195615649E0,-1.940070689E-1,-1.774123460E-1
2.132992333E0,-1.079834461E0,-1.951311827E-1,-1.628656685E-2
2.142950333E0,-9.306275845E-1,-2.956073880E-1,9.733875841E-2
2.152908333E0,-7.658876777E-1,-4.279883206E-1,1.178530827E-1
2.162866333E0,-6.097010970E-1,-4.855085313E-1,4.986488819E-2
2.172824333E0,-4.539951086E-1,-4.417748749E-1,-5.598377809E-2
2.182782333E0,-2.959752977E-1,-3.093091846E-1,-1.266048253E-1
2.192740333E0,-1.759075075E-1,-7.335681468E-2,-1.725510061E-1
2.202698333E0,-9.090153128E-2,2.195535749E-1,-1.701641530E-1
2.212656333E0,-1.251643989E-2,4.666848183E-1,-9.951234609E-2
2.222614333E0,1.180138513E-1,5.478809476E-1,2.158460394E-2
2.232572333E0,2.826299667E-1,5.608204603E-1,1.701533049E-1
2.242530333E0,4.569056332E-1,5.015277267E-1,2.836064994E-1
2.252488333E0,7.071080208E-1,3.917192519E-1,3.402910829E-1
2.262446333E0,1.047111869E0,3.478305638E-1,3.175381124E-1
2.272404333E0,1.350219250E0,3.396298885E-1,3.031277359E-1
2.282362333E0,1.542471409E0,3.141306639E-1,3.395766914E-1
2.292320333E0,1.627152443E0,2.430876344E-1,4.628786445E-1
2.302278333E0,1.602321744E0,2.220844477E-2,6.183593869E-1
2.312236333E0,1.435878754E0,-3.110659122E-1,7.590672374E-1
2.322194333E0,1.104682565E0,-6.358313560E-1,8.477242589E-1
2.332152333E0,6.664946079E-1,-8.252268434E-1,7.977058887E-1
2.342110333E0,2.600589991E-1,-7.254328132E-1,6.216315031E-1
2.352067333E0,1.350222994E-2,-3.236065209E-1,4.459022880E-1
2.362025333E0,-7.832519710E-2,1.980475485E-1,4.072397947E-1
2.371983333E0,-8.129515499E-2,6.186618805E-1,5.539024472E-1
2.381941333E0,-9.995565563E-2,8.882889152E-1,7.676000595E-1
2.391899333E0,-1.324230433E-1,9.587748051E-1,9.151828885E-1
2.401857333E0,-1.071073115E-1,9.244865179E-1,9.450925589E-1
2.411815333E0,-1.313766837E-2,7.880820632E-1,8.750437498E-1
2.421773333E0,9.973858297E-2,4.870575368E-1,7.365015149E-1
2.431731333E0,2.136542350E-1,1.509295851E-1,5.812307000E-1
2.441689333E0,2.967739403E-1,-4.625868425E-2,4.661647677E-1
2.451647333E0,3.015380800E-1,-8.443856239E-2,3.793558180E-1
2.461605333E0,1.963616908E-1,8.769458160E-3,3.202707171E-1
2.471563333E0,-3.445417853E-3,2.078913450E-1,2.648066580E-1
2.481521333E0,-2.749708593E-1,4.891521633E-1,1.886800379E-1
2.491479333E0,-5.609669685E-1,7.498801947E-1,8.496135473E-2
2.501437333E0,-8.089956641E-1,9.674044847E-1,-6.980758160E-2
2.511395333E0,-9.953556657E-1,1.041465282E0,-2.790984809E-1
2.521353333E0,-1.118174076E0,9.807432890E-1,-5.189947486E-1
2.531311333E0,-1.185971498E0,8.800553083E-1,-7.624667883E-1
2.541269333E0,-1.175151110E0,7.341912985E-1,-9.373466969E-1
2.551227333E0,-1.027162433E0,6.084528565E-1,-9.906054139E-1
2.561185333E0,-7.370787859E-1,5.157331824E-1,-8.945029974E-1
2.571143333E0,-4.063256383E-1,4.353691041E-1,-7.338885069E-1
2.581101333E0,-6.511384249E-2,2.356401533E-1,-5.869720578E-1
2.591059333E0,2.658755183E-1,5.818467960E-2,-5.151072145E-1
2.601017333E0,5.154808164E-1,-1.199763119E-1,-5.166940689E-1
2.610975333E0,7.331364155E-1,-2.479723692E-1,-5.749635100E-1
2.620933333E0,9.447278380E-1,-3.295815587E-1,-6.610806584E-1
2.630891333E0,1.112309933E0,-4.491345882E-1,-7.025172710E-1
2.640849333E0,1.263093591E0,-5.141304135E-1,-6.711632609E-1
2.650806333E0,1.366182446E0,-6.152253151E-1,-5.961057544E-1
2.660764333E0,1.375829697E0,-8.784044385E-1,-5.084433556E-1
2.670722333E0,1.326292753E0,-1.053747296E0,-3.917292356E-1
2.680680333E0,1.285689116E0,-1.129096150E0,-2.772187293E-1
2.690638333E0,1.339635015E0,-1.128460169E0,-2.309327275E-1
2.700596333E0,1.373463035E0,-1.096053123E0,-2.564068437E-1
2.710554333E0,1.281320333E0,-1.051426768E0,-3.119705021E-1
2.720512333E0,1.026550531E0,-1.130099893E0,-3.352590203E-1
2.730470333E0,5.877912045E-1,-1.416057706E0,-3.158371150E-1
2.740428333E0,1.026252564E-2,-1.780760646E0,-2.768028677E-1
2.750386333E0,-6.159715652E-1,-2.090970755E0,-2.724113166E-1
2.760344333E0,-1.154458642E0,-2.171175718E0,-3.212051392E-1
2.770302333E0,-1.513962388E0,-1.970799327E0,-3.649260104E-1
2.780260333E0,-1.639091492E0,-1.511574745E0,-3.571786880E-1
2.790218333E0,-1.623547077E0,-9.404917359E-1,-2.868491113E-1
2.800176333E0,-1.558468461E0,-4.142286181E-1,-1.837894022E-1
2.810134333E0,-1.491851449E0,-3.447411209E-2,-6.748304516E-2
2.820092333E0,-1.440496683E0,2.110595256E-1,4.262648989E-3
2.830050333E0,-1.389093757E0,3.358746767E-1,2.826598659E-2
2.840008333E0,-1.330823183E0,3.271340728E-1,4.368564487E-2
2.849966333E0,-1.275030255E0,1.854839921E-1,3.572199494E-2
2.859924333E0,-1.216874957E0,-3.199087828E-2,-3.436730057E-2
2.869882333E0,-1.125865579E0,-2.275047153E-1,-2.076778263E-1
2.879840333E0,-9.648612142E-1,-2.846821547E-1,-4.930630624E-1
2.889798333E0,-7.390528917E-1,-2.410609275E-1,-7.855843902E-1
2.899756333E0,-4.509505033E-1,-1.969427466E-1,-9.471343160E-1
2.909714333E0,-1.113471463E-1,-2.167952806E-1,-9.226731658E-1
2.919672333E0,2.048831135E-1,-2.987911999E-1,-7.828954458E-1
2.929629333E0,4.793748558E-1,-4.549427032E-1,-6.111899614E-1
2.939586333E0,7.244431973E-1,-5.960068107E-1,-4.786094129E-1
2.949544333E0,9.075213671E-1,-5.799546242E-1,-4.273273051E-1
2.959502333E0,9.771462679E-1,-5.259918571E-1,-4.474073350E-1
2.969460333E0,9.670475721E-1,-2.147535533E-1,-4.376180768E-1
2.979418333E0,9.035673738E-1,3.006143868E-1,-3.421094418E-1
2.989376333E0,9.072496891E-1,7.884117365E-1,-1.625042707E-1
2.999334333E0,1.028995156E0,1.077967525E0,1.036786288E-1
3.009292333E0,1.246577263E0,1.168220758E0,4.522408843E-1
3.019250333E0,1.469805717E0,1.023765326E0,7.834951282E-1
3.029208333E0,1.665385127E0,6.826485395E-1,9.956787825E-1
3.039166333E0,1.801655531E0,1.984706372E-1,1.041112781E0
3.049124333E0,1.833642721E0,-4.415303767E-1,9.870004654E-1
3.059082333E0,1.897647142E0,-9.549522996E-1,9.615191817E-1
3.069040333E0,1.972869158E0,-1.222918272E0,1.012199879E0
3.078998333E0,1.988775492E0,-1.216493130E0,1.157397747E0
3.088956333E0,1.866770506E0,-8.962000608E-1,1.399343491E0
3.098914333E0,1.528567433E0,-3.078474700E-1,1.689712286E0
3.108872333E0,1.042520523E0,4.061702490E-1,1.958112240E0
3.118830333E0,5.236994624E-1,1.069578767E0,2.141733408E0
3.128788333E0,1.068399325E-1,1.572830439E0,2.235864401E0
3.138746333E0,-1.282926351E-1,1.863821387E0,2.294596195E0
3.148704333E0,-1.585496068E-1,1.981766701E0,2.327709913E0
3.158662333E0,-2.434315532E-2,1.898419499E0,2.345899343E0
3.168620333E0,1.923031360E-1,1.799882293E0,2.355648518E0
3.178577333E0,3.750093877E-1,1.806756258E0,2.377036572E0
3.188535333E0,4.372772872E-1,1.894702911E0,2.410291672E0
3.198493333E0,3.678908944E-1,2.007691383E0,2.437954187E0
3.208451333E0,1.969761550E-1,2.172187805E0,2.470858574E0
3.218409333E0,-3.844888136E-2,2.309454679E0,2.475343227E0
3.228367333E0,-2.192149311E-1,2.346422195E0,2.342263460E0
3.238325333E0,-2.387563586E-1,2.230214357E0,2.055297852E0
3.248283333E0,-1.292245239E-1,2.012252569E0,1.699925423E0
3.258241333E0,3.056143224E-2,1.681089640E0,1.351035714E0
3.268199333E0,1.440784037E-1,1.293770671E0,1.059952974E0
3.278157333E0,1.676684767E-1,8.707844615E-1,8.307959437E-1
3.288115333E0,1.555193961E-1,4.171059728E-1,6.030312777E-1
3.298073333E0,1.755361259E-1,1.967139542E-2,4.002322853E-1
