"Time (s)","X (rad/s)","Y (rad/s)","Z (rad/s)"
1.941745833E-2,-7.733140588E-1,-8.752663136E-1,2.494103611E-1
2.937345835E-2,-8.056331277E-1,-8.993543386E-1,3.060484231E-1
3.932945838E-2,-7.859832644E-1,-9.366950989E-1,3.314491212E-1
4.928445839E-2,-7.156080604E-1,-9.619234204E-1,3.381296396E-1
5.924045842E-2,-6.066456437E-1,-9.731861949E-1,3.252441883E-1
6.919645832E-2,-4.926216006E-1,-9.780943394E-1,2.952746153E-1
7.915245835E-2,-3.826602101E-1,-9.653140903E-1,2.598612309E-1
8.910845837E-2,-2.972007096E-1,-8.994158506E-1,2.373708785E-1
9.906445839E-2,-2.512854338E-1,-8.466517329E-1,2.383011281E-1
1.090204584E-1,-2.385824919E-1,-8.492788672E-1,2.489141375E-1
1.189764583E-1,-2.525550425E-1,-8.736041784E-1,2.652377188E-1
1.289324583E-1,-2.893688977E-1,-9.369309545E-1,2.880810499E-1
1.388884584E-1,-3.457821012E-1,-9.979295731E-1,3.221322298E-1
1.488444584E-1,-3.717233837E-1,-1.023100615E0,3.667997718E-1
1.588004584E-1,-3.528229296E-1,-9.956596494E-1,4.036483467E-1
1.687564583E-1,-3.099152148E-1,-8.499417901E-1,4.262482822E-1
1.787124583E-1,-2.750714719E-1,-6.476914883E-1,4.269622564E-1
1.886674584E-1,-2.944163680E-1,-4.413229823E-1,4.026253223E-1
1.986234584E-1,-3.556187451E-1,-3.090874553E-1,3.622523248E-1
2.085794584E-1,-4.541715980E-1,-2.772472799E-1,3.378928602E-1
2.185354583E-1,-5.523725152E-1,-3.343118727E-1,3.519197404E-1
2.284914583E-1,-6.254125834E-1,-3.677001595E-1,4.036690593E-1
2.384474584E-1,-6.778004169E-1,-3.751692474E-1,4.672829211E-1
2.484034584E-1,-7.396488786E-1,-3.950085342E-1,5.284225941E-1
2.583594584E-1,-7.571181655E-1,-4.466333985E-1,5.884723663E-1
2.683154583E-1,-6.978019476E-1,-5.263434649E-1,6.511872411E-1
2.782714583E-1,-6.110451818E-1,-6.652467847E-1,7.316804528E-1
2.882274584E-1,-5.029425621E-1,-8.286646008E-1,8.039664030E-1
2.981834584E-1,-3.788504303E-1,-9.501667619E-1,8.697411418E-1
3.081384584E-1,-2.331429273E-1,-1.033214927E0,9.356256127E-1
3.180944583E-1,-1.063714027E-1,-1.096059442E0,9.632686973E-1
3.280504583E-1,-3.835591301E-2,-1.071184039E0,9.406104684E-1
3.380064584E-1,-2.773682773E-2,-9.918293357E-1,8.897345066E-1
3.479624584E-1,-6.044763327E-2,-8.663648963E-1,8.434178829E-1
3.579184584E-1,-1.246937364E-1,-7.385323644E-1,8.099656105E-1
3.678744583E-1,-2.049813271E-1,-6.501122713E-1,7.994384766E-1
3.778304583E-1,-2.578735650E-1,-6.200851798E-1,8.232820034E-1
3.877864584E-1,-2.458663881E-1,-6.107612252E-1,8.744544387E-1
3.977424584E-1,-1.858733594E-1,-6.462934017E-1,9.362152815E-1
4.076984584E-1,-1.222749576E-1,-6.443962455E-1,9.652907848E-1
4.176534583E-1,-9.782793373E-2,-6.187915206E-1,9.841750264E-1
4.276094583E-1,-1.039185748E-1,-5.878913403E-1,9.778490067E-1
4.375654584E-1,-1.237705797E-1,-5.116549134E-1,9.542275667E-1
4.475214584E-1,-1.701097488E-1,-4.081875980E-1,9.333348274E-1
4.574774584E-1,-2.423959225E-1,-3.156534135E-1,8.971965313E-1
4.674334583E-1,-3.477679193E-1,-2.265717536E-1,8.675292134E-1
4.773894583E-1,-4.896211922E-1,-2.466362715E-1,8.224954009E-1
4.873454584E-1,-6.323208213E-1,-3.896921277E-1,7.497974634E-1
4.973014584E-1,-7.228909731E-1,-6.407080889E-1,6.690258980E-1
5.072574584E-1,-7.301265597E-1,-9.908265471E-1,5.847076178E-1
5.172134583E-1,-5.937210321E-1,-9.986037612E-1,4.515410364E-1
5.271694583E-1,-3.842034340E-1,-1.170118570E0,2.917948663E-1
5.371254584E-1,-1.372924596E-1,-1.143407345E0,4.981872439E-2
5.470804584E-1,1.222872064E-1,-1.050118327E0,-2.725102007E-1
5.570364584E-1,2.838782370E-1,-1.148392439E0,-5.478248596E-1
5.669924584E-1,3.082241118E-1,-1.353666067E0,-7.342485785E-1
5.769484583E-1,1.915640831E-1,-1.286356211E0,-8.280874491E-1
5.869044584E-1,-9.941412508E-2,-1.345574856E0,-7.605369091E-1
5.968604584E-1,-4.667298198E-1,-1.490769506E0,-6.054219007E-1
6.068164584E-1,-7.879841924E-1,-1.436898947E0,-3.914630711E-1
6.167724583E-1,-1.015105009E0,-1.067922711E0,-2.431180775E-1
6.267284583E-1,-1.127793312E0,-4.356267452E-1,-2.061687261E-1
6.366844584E-1,-1.126548290E0,2.247892767E-1,-2.178482860E-1
6.466404584E-1,-1.026739836E0,7.119428515E-1,-2.678083777E-1
6.565954584E-1,-8.766790032E-1,1.007293701E0,-3.359959722E-1
6.665514584E-1,-6.880211830E-1,1.194284678E0,-3.938062191E-1
6.765074583E-1,-4.835676253E-1,1.302498341E0,-4.557199180E-1
6.864626250E-1,-3.195918500E-1,1.327194214E0,-5.546140075E-1
6.964186251E-1,-1.965298206E-1,1.265844822E0,-7.232509851E-1
7.063746250E-1,-1.331290901E-1,1.232253194E0,-8.831726909E-1
7.163306250E-1,-1.231787205E-1,1.076324940E0,-9.725401402E-1
7.262866250E-1,-1.755803078E-1,8.985220194E-1,-9.654703140E-1
7.362426250E-1,-2.827222049E-1,6.840547323E-1,-8.840721250E-1
7.461986251E-1,-4.181826115E-1,3.487361968E-1,-8.096413612E-1
7.561546250E-1,-5.690848231E-1,1.207192764E-1,-7.635787725E-1
7.661106250E-1,-7.468441725E-1,1.025931016E-1,-7.304595709E-1
7.760656250E-1,-9.448741674E-1,2.462575883E-1,-7.488856912E-1
7.860216250E-1,-1.152088404E0,3.138192296E-1,-8.513691425E-1
7.959776251E-1,-1.344307065E0,2.824873924E-1,-1.020061731E0
8.059336251E-1,-1.437130570E0,2.702645063E-1,-1.145381689E0
8.158896250E-1,-1.386354208E0,2.458315939E-1,-1.162113547E0
8.258456250E-1,-1.197259665E0,1.145258024E-1,-1.083863854E0
8.358016250E-1,-8.785536289E-1,3.014987335E-3,-9.427872896E-1
8.457576251E-1,-4.849458039E-1,-7.438268512E-2,-7.866572142E-1
8.557136250E-1,-1.137461588E-1,-1.248389333E-1,-6.730595231E-1
8.656696250E-1,1.746144295E-1,-1.478507966E-1,-5.792720914E-1
8.756256250E-1,3.160820901E-1,-1.776654273E-1,-4.892221093E-1
8.855806250E-1,3.274724483E-1,-1.408415139E-1,-4.223640263E-1
8.955366251E-1,2.244163901E-1,-1.621372253E-1,-3.899498880E-1
9.054926251E-1,5.866137892E-2,-2.514137030E-1,-3.985577822E-1
9.154486250E-1,-1.351701319E-1,-2.646096647E-1,-3.754167557E-1
9.254046250E-1,-3.464050591E-1,-2.076441050E-1,-3.714661896E-1
9.353606250E-1,-5.152790546E-1,-7.283595949E-2,-4.591135085E-1
9.453166251E-1,-6.803076267E-1,2.336563170E-1,-5.257277489E-1
9.552726251E-1,-7.633801103E-1,4.301826954E-1,-4.434251189E-1
9.652286250E-1,-6.565064192E-1,3.627780676E-1,-2.729381323E-1
9.751846250E-1,-5.698007941E-1,4.433432221E-1,-8.022910357E-2
9.851406250E-1,-4.986152053E-1,6.150389910E-1,-3.241904825E-2
9.950956251E-1,-5.105339289E-1,8.247477412E-1,-1.410502102E-2
1.005051625E0,-5.299951434E-1,9.653941989E-1,-1.517528296E-2
1.015007625E0,-5.110403895E-1,1.032550812E0,3.415018693E-2
1.024963625E0,-4.372206330E-1,1.058210969E0,1.169711798E-1
1.034919625E0,-3.488872945E-1,9.649997950E-1,2.139517963E-1
1.044875625E0,-2.395500839E-1,8.280373812E-1,2.873654962E-1
1.054831625E0,-1.375976205E-1,7.100816965E-1,3.127395511E-1
1.064787625E0,-1.379817352E-2,5.452634692E-1,2.992285192E-1
1.074743625E0,6.558666378E-2,3.744347394E-1,2.556794286E-1
1.084699625E0,1.193216816E-1,3.047480583E-1,2.131183743E-1
1.094655625E0,1.805115342E-1,3.975757360E-1,1.871829182E-1
1.104611625E0,2.243811190E-1,5.376541018E-1,2.048645765E-1
1.114566625E0,2.547200918E-1,6.629904509E-1,2.686086893E-1
1.124522625E0,2.522343993E-1,7.585422397E-1,3.510137200E-1
1.134478625E0,2.098712176E-1,7.657223940E-1,4.353712201E-1
1.144434625E0,1.714873016E-1,6.664270759E-1,4.932793081E-1
1.154390625E0,2.103574723E-1,4.124315977E-1,5.236225724E-1
1.164346625E0,3.073848188E-1,-7.287347317E-2,4.705739915E-1
1.174302625E0,3.209826648E-1,-5.481835604E-1,3.082857430E-1
1.184258625E0,1.501593292E-1,-7.391996384E-1,6.065909937E-2
1.194214625E0,-8.158788085E-2,-6.900150180E-1,-1.780533344E-1
1.204170625E0,-1.869814247E-1,-4.828553498E-1,-2.967822552E-1
1.214126625E0,-1.204545796E-1,-1.436849982E-1,-2.131930739E-1
1.224081625E0,6.508372724E-2,1.722869128E-1,6.522947550E-2
1.234037625E0,2.777155638E-1,3.668127060E-1,4.070411325E-1
1.243993625E0,4.444070458E-1,4.391390383E-1,6.889607906E-1
1.253949625E0,5.481654406E-1,4.283833206E-1,8.631570935E-1
1.263905625E0,6.008340120E-1,3.333282769E-1,9.397407174E-1
1.273861625E0,6.111582518E-1,2.038863897E-1,9.215366840E-1
1.283817625E0,6.207203865E-1,1.058087498E-1,8.353249431E-1
1.293773625E0,6.218961477E-1,2.362199873E-2,7.350593209E-1
1.303729625E0,5.865824223E-1,-3.337909281E-2,6.605230570E-1
1.313685625E0,5.185759664E-1,-2.302791737E-2,6.282420754E-1
1.323641625E0,4.096125066E-1,2.345268428E-2,6.404733062E-1
1.333596625E0,2.875611782E-1,6.696847081E-2,6.648369431E-1
1.343552625E0,1.916501671E-1,1.090562418E-1,6.588463187E-1
1.353508625E0,1.445449740E-1,1.027466804E-1,6.157872677E-1
1.363464625E0,1.485782117E-1,1.993153431E-2,5.373159051E-1
1.373420625E0,1.651752889E-1,-1.230884716E-1,4.441556334E-1
1.383376625E0,1.742086112E-1,-2.587494254E-1,3.550850153E-1
1.393332625E0,1.589050144E-1,-2.964307666E-1,2.730633616E-1
1.403288625E0,1.528565586E-1,-1.886408925E-1,2.201799452E-1
1.413244625E0,1.569000334E-1,-1.057129633E-2,2.345354408E-1
1.423200625E0,1.647243649E-1,1.483940780E-1,3.127012551E-1
1.433155625E0,1.823614240E-1,2.410145551E-1,4.164449573E-1
1.443111625E0,2.294928879E-1,2.660226822E-1,5.286723375E-1
1.453067625E0,2.892597914E-1,2.197007239E-1,6.252574921E-1
1.463023625E0,3.282407522E-1,1.165599599E-1,6.681213379E-1
1.472979625E0,3.480967581E-1,-3.371237777E-3,6.469404101E-1
1.482935625E0,3.322501779E-1,-1.197776943E-1,5.702974200E-1
1.492891625E0,3.224108517E-1,-1.991231143E-1,4.535423219E-1
1.502847625E0,3.113583624E-1,-2.127697766E-1,3.175499439E-1
1.512803625E0,2.976351082E-1,-1.486568451E-1,1.820603162E-1
1.522759625E0,2.795812190E-1,-6.746217608E-2,9.072941542E-2
1.532715625E0,2.365285605E-1,3.540800884E-2,6.157232821E-2
1.542670625E0,1.701693088E-1,1.498292685E-1,9.645366669E-2
1.552626625E0,9.509053081E-2,2.635156214E-1,1.585308909E-1
1.562582625E0,2.628597617E-2,3.287686110E-1,1.865350157E-1
1.572538625E0,-2.412792854E-2,2.933443189E-1,1.709653884E-1
1.582494625E0,-1.951192506E-2,1.903269440E-1,1.215775013E-1
1.592450625E0,3.240426630E-2,7.411724329E-2,4.045202583E-2
1.602406625E0,1.077034324E-1,-4.641935602E-2,-6.764289737E-2
1.612362625E0,1.815334409E-1,-1.817899644E-1,-1.801659912E-1
1.622318625E0,2.442141622E-1,-3.210133016E-1,-2.692057192E-1
1.632274625E0,3.078136444E-1,-4.222784042E-1,-3.265680969E-1
1.642229625E0,3.704110682E-1,-4.865849018E-1,-3.198115826E-1
1.652185625E0,4.077150226E-1,-5.374464393E-1,-2.560629547E-1
1.662141625E0,4.052933753E-1,-5.615517497E-1,-1.923189908E-1
1.672097625E0,4.150495827E-1,-4.912019968E-1,-1.563133299E-1
1.682053625E0,4.084299505E-1,-3.497596383E-1,-1.310194284E-1
1.692010000E0,3.105260134E-1,-2.401447147E-1,-1.059510857E-1
1.701966000E0,3.994794935E-2,-1.896810234E-1,-1.186440140E-1
1.711922000E0,-3.988030255E-1,-2.103703171E-1,-2.043317407E-1
1.721878000E0,-8.954882622E-1,-2.521916032E-1,-3.770007789E-1
1.731834000E0,-1.280106187E0,-1.879678667E-1,-5.779157877E-1
1.741790000E0,-1.445238829E0,3.180908784E-2,-7.388818264E-1
1.751745000E0,-1.398192286E0,2.972476780E-1,-8.260170221E-1
1.761701000E0,-1.206905365E0,5.067464709E-1,-7.864934206E-1
1.771657000E0,-9.378898740E-1,6.022109389E-1,-6.325930357E-1
1.781613000E0,-6.352825761E-1,6.013606787E-1,-3.960379362E-1
1.791569000E0,-3.794926107E-1,4.533810914E-1,-1.243086755E-1
1.801525000E0,-2.127465159E-1,1.876569241E-1,1.186710745E-1
1.811481000E0,-1.133152619E-1,-1.064921543E-1,2.713908255E-1
1.821437000E0,-5.094197765E-2,-3.547782004E-1,2.750974000E-1
1.831393000E0,-1.781838201E-2,-4.927714765E-1,1.384490132E-1
1.841349000E0,-2.109165117E-2,-5.274713635E-1,-9.309995174E-2
1.851304000E0,-7.346750796E-2,-5.003036857E-1,-3.350625038E-1
1.861260000E0,-1.698714942E-1,-4.401121736E-1,-5.311793089E-1
1.871216000E0,-2.678047121E-1,-2.983984351E-1,-6.451594234E-1
1.881172000E0,-3.437071443E-1,-9.614735842E-2,-6.316708326E-1
1.891128000E0,-3.994284570E-1,1.128383577E-1,-5.258498788E-1
1.901084000E0,-4.378578961E-1,2.834067047E-1,-3.914719522E-1
1.911040000E0,-4.657241702E-1,3.813881278E-1,-2.686171234E-1
1.920996000E0,-4.475194812E-1,3.976345360E-1,-2.023511380E-1
1.930952000E0,-3.631097972E-1,3.472526073E-1,-2.056827545E-1
1.940908000E0,-2.032021582E-1,2.793412507E-1,-2.655444443E-1
1.950864000E0,-3.340713680E-3,2.047474235E-1,-3.377462029E-1
1.960819000E0,1.863184273E-1,1.204854473E-1,-3.803254962E-1
1.970775000E0,3.232765496E-1,5.111648887E-2,-3.873565197E-1
1.980731000E0,3.858388960E-1,-1.148097962E-2,-3.606679738E-1
1.990687000E0,3.753082454E-1,-6.007088348E-2,-3.024038672E-1
2.000643000E0,2.952254117E-1,-6.907780468E-2,-2.589980960E-1
2.010599000E0,1.736838073E-1,-3.342899680E-2,-2.439086288E-1
2.020555000E0,4.633183405E-2,2.946282923E-2,-2.560449243E-1
2.030511000E0,-6.717076153E-2,6.391215324E-2,-2.953851223E-1
2.040467000E0,-1.442709267E-1,6.589474529E-2,-3.580442965E-1
2.050423000E0,-1.663245708E-1,5.706050247E-2,-4.135389626E-1
2.060378000E0,-1.442012638E-1,5.074629560E-2,-4.038990438E-1
2.070334000E0,-9.017478675E-2,5.701990426E-2,-3.319974244E-1
2.080290000E0,-1.173006371E-2,4.551313818E-2,-2.355261296E-1
2.090246000E0,9.397266805E-2,2.517467365E-3,-1.024311855E-1
2.100202000E0,2.407118082E-1,-5.381521955E-2,5.061743408E-2
2.110158000E0,4.061852098E-1,-1.259666532E-1,1.927990764E-1
2.120114000E0,5.601037145E-1,-2.090942264E-1,2.810168862E-1
2.130070000E0,6.785400510E-1,-2.768263817E-1,2.991764545E-1
2.140026000E0,7.862834334E-1,-2.852767110E-1,2.469160706E-1
2.149982000E0,9.098570347E-1,-2.216873318E-1,1.636283696E-1
2.159937000E0,1.028667331E0,-1.362909526E-1,1.262539625E-1
2.169893000E0,1.068669915E0,-3.474061936E-2,1.692411005E-1
2.179849000E0,1.010881066E0,7.503233105E-2,2.906287909E-1
2.189805000E0,8.708907366E-1,1.337624788E-1,4.534459412E-1
2.199761000E0,7.062776089E-1,1.879852116E-1,5.838201642E-1
2.209717000E0,5.606114864E-1,2.548523843E-1,6.202359200E-1
2.219673000E0,4.255808294E-1,2.203812450E-1,5.419614315E-1
2.229629000E0,3.173685968E-1,8.568522334E-2,3.622076213E-1
2.239585000E0,2.608514130E-1,-1.218842715E-1,1.627526730E-1
2.249541000E0,2.667697668E-1,-3.148851395E-1,2.975788526E-2
2.259496000E0,3.338912725E-1,-4.160357118E-1,-5.896782503E-3
2.269452000E0,4.206599891E-1,-4.148916304E-1,7.999948412E-2
2.279408000E0,4.746441543E-1,-3.410724998E-1,2.617283463E-1
2.289364000E0,4.679835737E-1,-2.395083308E-1,4.646212757E-1
2.299320000E0,3.567229509E-1,-1.267842352E-1,6.317803264E-1
2.309276000E0,1.328712404E-1,-6.194558367E-2,7.387405634E-1
2.319232000E0,-1.659087688E-1,-4.198883846E-2,7.457457185E-1
2.329188000E0,-4.342331588E-1,6.267605722E-2,6.360807419E-1
2.339144000E0,-6.102172136E-1,2.623350620E-1,4.591562748E-1
2.349100000E0,-6.918004751E-1,4.758606553E-1,3.060471416E-1
2.359055000E0,-7.296375632E-1,6.383737326E-1,2.138884217E-1
2.369011000E0,-7.339729667E-1,7.436660528E-1,1.926933825E-1
2.378967000E0,-6.956554055E-1,7.706509829E-1,2.398012877E-1
2.388923000E0,-6.132034063E-1,7.254682779E-1,3.205083907E-1
2.398879000E0,-4.893129468E-1,6.224403381E-1,4.072815478E-1
2.408835000E0,-3.289712071E-1,4.672332108E-1,4.907463491E-1
2.418791000E0,-1.562398225E-1,2.945977449E-1,5.603761077E-1
2.428747000E0,-1.333407033E-2,1.375644654E-1,6.120781898E-1
2.438703000E0,7.063391805E-2,1.918407902E-2,6.271746755E-1
2.448658000E0,1.368720531E-1,-4.678641632E-2,6.146705747E-1
2.458614000E0,1.867833734E-1,-1.190233678E-1,5.728747845E-1
2.468570000E0,2.508803308E-1,-1.325514317E-1,5.276830792E-1
2.478526000E0,3.303362131E-1,-9.938306361E-2,5.345690846E-1
2.488482000E0,3.768083751E-1,-7.750333101E-2,5.551113486E-1
2.498438000E0,3.693054914E-1,-8.033722639E-2,5.699216127E-1
2.508394000E0,3.157264292E-1,-1.232953519E-1,5.601302385E-1
2.518350000E0,2.245020419E-1,-1.778763831E-1,5.057293773E-1
2.528306000E0,1.238065884E-1,-2.225698233E-1,4.022011161E-1
2.538262000E0,6.510275602E-2,-2.258840799E-1,2.629424632E-1
2.548217000E0,3.899445757E-2,-2.010993659E-1,1.302715093E-1
2.558173000E0,3.495746059E-3,-2.026832849E-1,2.649327368E-2
2.568129000E0,-4.565688595E-2,-2.557598054E-1,-5.704422668E-2
2.578085000E0,-3.189064935E-2,-4.094147384E-1,-9.967568517E-2
2.588041000E0,1.030772850E-1,-6.520857215E-1,-4.035137594E-2
2.597997000E0,3.003885448E-1,-9.127972722E-1,5.959128961E-2
2.607953000E0,4.966278374E-1,-1.165241122E0,1.347816586E-1
2.617909000E0,6.211869717E-1,-1.285037160E0,1.780228168E-1
2.627865000E0,6.274683475E-1,-1.261811733E0,1.796646416E-1
2.637821000E0,5.570182204E-1,-1.091163397E0,1.311439872E-1
2.647776000E0,4.769274294E-1,-7.419311404E-1,6.078433618E-2
2.657732000E0,4.171921611E-1,-3.138366640E-1,1.397009753E-2
2.667688000E0,3.898196518E-1,3.625528514E-2,1.182678528E-2
2.677644000E0,3.574088514E-1,2.706093788E-1,7.531336695E-2
2.687599583E0,2.252974361E-1,4.150882661E-1,1.732785404E-1
2.697555583E0,-1.088904515E-1,4.516463280E-1,2.009441704E-1
2.707511583E0,-6.005606055E-1,4.362617731E-1,6.057161838E-2
2.717467583E0,-1.101212740E0,4.433290958E-1,-2.142384350E-1
2.727423583E0,-1.460591912E0,5.128128529E-1,-5.748887658E-1
2.737378583E0,-1.524373531E0,7.265869975E-1,-8.948095441E-1
2.747334583E0,-1.358624220E0,9.524874687E-1,-1.078011513E0
2.757290583E0,-1.040951967E0,1.021936417E0,-1.080776095E0
2.767246583E0,-6.239651442E-1,8.851819634E-1,-8.602021337E-1
2.777202583E0,-1.473494172E-1,6.618461609E-1,-4.657110870E-1
2.787158583E0,3.072271347E-1,3.825221360E-1,-2.356563136E-2
2.797114583E0,5.953028202E-1,8.240391314E-2,3.507554233E-1
2.807070583E0,6.357617974E-1,-1.834027320E-1,5.799415112E-1
2.817026583E0,4.804551005E-1,-3.630180955E-1,6.090251207E-1
2.826982583E0,2.712616920E-1,-4.247373939E-1,4.336684942E-1
2.836937583E0,6.937157363E-2,-3.482590318E-1,1.116222665E-1
2.846893583E0,-1.147993281E-1,-2.010370940E-1,-2.420335263E-1
2.856849583E0,-2.935512960E-1,-2.083095536E-2,-5.138954520E-1
2.866805583E0,-4.853870571E-1,1.599627882E-1,-6.897360086E-1
2.876761583E0,-6.519101858E-1,3.119938374E-1,-7.872110009E-1
2.886717583E0,-7.155125737E-1,4.487493038E-1,-7.871465683E-1
2.896673583E0,-6.602980494E-1,5.431202054E-1,-6.887338161E-1
2.906629583E0,-5.356549025E-1,5.433369875E-1,-5.395054817E-1
2.916585583E0,-3.797581196E-1,4.143054187E-1,-4.087831676E-1
2.926540583E0,-2.227546573E-1,1.813475490E-1,-3.390552104E-1
2.936496583E0,-6.911526620E-2,-4.893476143E-2,-3.332564533E-1
2.946452583E0,7.069695741E-2,-2.272392511E-1,-3.901527524E-1
2.956408583E0,1.938048452E-1,-2.661421895E-1,-4.806198776E-1
2.966364583E0,2.873923481E-1,-1.828371882E-1,-5.429165363E-1
2.976320583E0,3.176161349E-1,-4.642630368E-2,-5.265887976E-1
2.986276583E0,2.557594180E-1,3.397692740E-2,-4.517121911E-1
2.996232583E0,1.404192299E-1,5.341570079E-2,-3.645564914E-1
3.006188583E0,4.800221324E-2,3.994143754E-2,-2.710297406E-1
3.016144583E0,1.696691662E-2,-3.583358601E-3,-1.785739362E-1
3.026099583E0,6.791398674E-2,-6.832666695E-2,-1.236726120E-1
3.036055583E0,2.060111463E-1,-1.240738183E-1,-1.011979282E-1
3.046011583E0,3.785293698E-1,-1.607940197E-1,-1.001691446E-1
3.055967583E0,5.126348138E-1,-1.833938658E-1,-1.082119867E-1
3.065923583E0,5.709220767E-1,-1.764134467E-1,-8.976213634E-2
3.075879583E0,5.542090535E-1,-1.499129981E-1,-4.386311769E-2
3.085835583E0,5.064862967E-1,-1.038078219E-1,3.548257053E-2
3.095791583E0,4.630622864E-1,-5.268473178E-2,1.415096074E-1
3.105747583E0,4.450590312E-1,-4.290347546E-2,2.437164038E-1
3.115702583E0,4.669390619E-1,-3.596687689E-2,3.167036772E-1
3.125658583E0,5.308607817E-1,-8.631579578E-2,3.646557331E-1
3.135614583E0,6.039817333E-1,-1.551871449E-1,3.574629128E-1
3.145570583E0,6.450349092E-1,-1.684102863E-1,2.761099935E-1
3.155526583E0,6.375267506E-1,-1.273410469E-1,1.542149633E-1
3.165482583E0,5.731781721E-1,-2.969597839E-2,5.842612311E-2
3.175438583E0,4.628582299E-1,8.091053367E-2,4.361639172E-2
3.185394583E0,3.167436421E-1,1.428852230E-1,9.506839514E-2
3.195350583E0,1.791176349E-1,1.866458356E-1,1.972682178E-1
3.205305583E0,8.529926091E-2,1.758232713E-1,2.985040247E-1
3.215261583E0,1.671841368E-2,1.145966426E-1,3.165817261E-1
3.225217583E0,4.752299748E-3,6.798706204E-2,2.263109833E-1
3.235173583E0,9.985891730E-2,9.438482672E-2,1.148664057E-1
3.245129583E0,2.650856972E-1,1.606586576E-1,3.718013316E-2
3.255085583E0,4.408201277E-1,2.424421459E-1,7.467836887E-2
3.265041583E0,5.556358695E-1,2.775721848E-1,2.180555016E-1
3.274997583E0,5.579820871E-1,2.195960879E-1,3.955315650E-1
3.284953583E0,4.179732800E-1,1.041927934E-1,5.159724951E-1
